position	positive	negative
1	0	-0.166666666666667
2	0	-0.333333333333333
3	0	-0.5
4	0	-0.666666666666667
5	0	-0.833333333333333
6	0	-1
7	0	-1
8	0	-1
9	0	-1
10	0	-1
11	0	-1
12	0	-1
13	0	-1
14	0	-1
15	0	-1
16	0	-1
17	0	-1
18	0	-1
19	0	-1
20	0	-1
21	0	-1
22	0	-1
23	0	-1
24	0	-1
25	0	-1
26	0	-1
27	0	-1
28	0	-1
29	0	-1
30	0	-1
31	0	-1
32	0	-1
33	0	-1
34	0	-1
35	0	-1
36	0	-1
37	0	-1
38	0	-1
39	0	-1
40	0	-1
41	0	-1
42	0	-1
43	0	-1
44	0	-1
45	0	-1
46	0	-1
47	0	-1
48	0	-1
49	0	-1
50	0	-1
51	0	-1
52	0	-1
53	0	-1
54	0	-1
55	0	-1
56	0	-1
57	0	-1
58	0	-1
59	0	-1
60	0	-1
61	0	-1
62	0	-1
63	0	-1
64	0	-1
65	0	-1
66	0	-1
67	0	-1
68	0	-1
69	0	-1
70	0	-1
71	0	-1
72	0	-1
73	0	-1
74	0	-1
75	0	-1
76	0	-1
77	0	-1
78	0	-1
79	0	-1
80	0	-1
81	0	-1
82	0	-1
83	0	-1
84	0	-1
85	0	-1
86	0	-1
87	0	-1
88	0	-1
89	0	-1
90	0	-1
91	0	-1
92	0	-1
93	0	-1
94	0	-1
95	0	-1
96	0	-1
97	0	-1
98	0	-1
99	0	-1
100	0	-1
101	0	-1
102	0	-1
103	0	-1
104	0	-1
105	0	-1
106	0	-1
107	0	-1
108	0	-1
109	0	-1
110	0	-1
111	0	-1
112	0	-1
113	0	-1
114	0	-1
115	0	-1
116	0	-1
117	0	-1
118	0	-1
119	0	-1
120	0	-1
121	0	-1
122	0	-1
123	0	-1
124	0	-1
125	0	-1
126	0	-1
127	0	-1
128	0	-1
129	0	-1
130	0	-1
131	0	-1
132	0	-1
133	0	-1
134	0	-1
135	0	-0.666666666666667
136	0	-0.333333333333333
137	0	0
138	0.333333333333333	0
139	0.333333333333333	0
140	0.333333333333333	0
141	0.333333333333333	0
142	0	0
143	0	-0.333333333333333
144	0	-0.666666666666667
145	0	-0.833333333333333
146	0	-1
147	0	-1
148	0	-1
149	0	-1
150	0	-1
151	0	-1
152	0	-1
153	0	-1
154	0	-1
155	0	-1
156	0	-1
157	0	-1
158	0	-1
159	0	-1
160	0	-1
161	0	-1
162	0	-1
163	0	-1
164	0	-1
165	0	-1
166	0	-1
167	0	-1
168	0	-1
169	0	-1
170	0	-1
171	0	-1
172	0	-1
173	0	-1
174	0	-1
175	0	-1
176	0	-1
177	0	-1
178	0	-1
179	0	-1
180	0	-1
181	0	-1
182	0	-1
183	0	-1
184	0	-1
185	0	-1
186	0	-1
187	0	-1
188	0	-1
189	0	-1
190	0	-1
191	0	-1
192	0	-1
193	0	-1
194	0	-1
195	0	-1
196	0	-1
197	0	-1
198	0	-1
199	0	-1
200	0	-1
201	0	-1
202	0	-1
203	0	-1
204	0	-1
205	0	-1
206	0	-1
207	0	-1
208	0	-1
209	0	-1
210	0	-1
211	0	-1
212	0	-1
213	0	-1
214	0	-1
215	0	-1
216	0	-1
217	0	-1
218	0	-1
219	0	-1
220	0	-1
221	0	-1
222	0	-1
223	0	-1
224	0	-1
225	0	-1
226	0	-1
227	0	-1
228	0	-1
229	0	-1
230	0	-1
231	0	-1
232	0	-1
233	0	-1
234	0	-1
235	0	-1
236	0	-1
237	0	-1
238	0	-1
239	0	-1
240	0	-1
241	0	-1
242	0	-1
243	0	-1
244	0	-1
245	0	-1
246	0	-1
247	0	-1
248	0	-1
249	0	-1
250	0	-1
251	0	-1
252	0	-0.666666666666667
253	0	-0.333333333333333
254	0	0
255	0.333333333333333	0
256	0.666666666666667	0
257	1	0
258	1	0
259	1	0
260	1	0
261	1	0
262	1	0
263	1	0
264	1	0
265	1	0
266	1	0
267	1	0
268	1	0
269	1	0
270	1	0
271	1	0
272	0.666666666666667	0
273	0.5	0
274	0.166666666666667	0
275	0	0
276	0	-0.333333333333333
277	0	-0.5
278	0	-0.333333333333333
279	0	0
280	0.333333333333333	0
281	0.666666666666667	0
282	0.666666666666667	0
283	1	0
284	1	0
285	1	0
286	1	0
287	0.666666666666667	0
288	0.333333333333333	0
289	0.333333333333333	0
290	0	0
291	0	0
292	0.166666666666667	0
293	0.333333333333333	0
294	0.666666666666667	0
295	1	0
296	1	0
297	1	0
298	0.833333333333333	0
299	0.666666666666667	0
300	0.666666666666667	0
301	0.666666666666667	0
302	0.333333333333333	0
303	0.333333333333333	0
304	0.333333333333333	0
305	0.333333333333333	0
306	0.333333333333333	0
307	0.333333333333333	0
308	0	0
309	0	0
310	0	0
311	0.333333333333333	0
312	0.333333333333333	0
313	0.666666666666667	0
314	1	0
315	1	0
316	0.666666666666667	0
317	0.5	0
318	0.166666666666667	0
319	0	-0.166666666666667
320	0	-0.5
321	0	-0.666666666666667
322	0	-1
323	0	-1
324	0	-1
325	0	-1
326	0	-1
327	0	-1
328	0	-1
329	0	-1
330	0	-1
331	0	-1
332	0	-1
333	0	-1
334	0	-1
335	0	-0.666666666666667
336	0	-0.333333333333333
337	0	0
338	0.333333333333333	0
339	0.666666666666667	0
340	0.666666666666667	0
341	1	0
342	1	0
343	1	0
344	1	0
345	1	0
346	1	0
347	1	0
348	1	0
349	1	0
350	1	0
351	1	0
352	1	0
353	1	0
354	1	0
355	1	0
356	1	0
357	1	0
358	1	0
359	1	0
360	1	0
361	1	0
362	1	0
363	1	0
364	0.666666666666667	0
365	0.5	0
366	0.333333333333333	0
367	0.5	0
368	0.333333333333333	0
369	0.333333333333333	0
370	0.666666666666667	0
371	0.666666666666667	0
372	1	0
373	1	0
374	0.666666666666667	0
375	1	0
376	0.666666666666667	0
377	0.666666666666667	0
378	0.666666666666667	0
379	0.666666666666667	0
380	0.666666666666667	0
381	0.333333333333333	0
382	0.333333333333333	0
383	0.333333333333333	0
384	0	0
385	0	0
386	0	0
387	0	0
388	0	0
389	0	0
390	0	0
391	0	0
392	0	-0.333333333333333
393	0	-0.333333333333333
394	0	-0.666666666666667
395	0	-0.666666666666667
396	0	-1
397	0	-1
398	0	-1
399	0	-1
400	0	-1
401	0	-1
402	0	-1
403	0	-1
404	0	-1
405	0	-1
406	0	-1
407	0	-1
408	0	-1
409	0	-1
410	0	-1
411	0	-1
412	0	-0.666666666666667
413	0	-0.333333333333333
414	0	0
415	0.333333333333333	0
416	0.666666666666667	0
417	1	0
418	1	0
419	1	0
420	0.666666666666667	0
421	0.5	0
422	0.5	0
423	0.5	0
424	0.333333333333333	0
425	0.666666666666667	0
426	0.833333333333333	0
427	0.666666666666667	0
428	0.5	0
429	0.166666666666667	0
430	0	-0.166666666666667
431	0	-0.333333333333333
432	0	-0.666666666666667
433	0	-0.666666666666667
434	0	-0.666666666666667
435	0	-1
436	0	-1
437	0	-1
438	0	-1
439	0	-1
440	0	-1
441	0	-1
442	0	-0.666666666666667
443	0	-0.333333333333333
444	0	0
445	0.333333333333333	0
446	0.666666666666667	0
447	0.666666666666667	0
448	1	0
449	1	0
450	1	0
451	1	0
452	1	0
453	1	0
454	1	0
455	1	0
456	1	0
457	1	0
458	1	0
459	1	0
460	1	0
461	1	0
462	1	0
463	1	0
464	1	0
465	1	0
466	0.666666666666667	0
467	0.333333333333333	0
468	0.333333333333333	0
469	0	0
470	0	-0.333333333333333
471	0	-0.666666666666667
472	0	-1
473	0	-0.833333333333333
474	0	-0.5
475	0	-0.166666666666667
476	0	0
477	0.333333333333333	0
478	0.666666666666667	0
479	1	0
480	1	0
481	0.666666666666667	0
482	0.333333333333333	0
483	0	0
484	0	0
485	0	0
486	0.333333333333333	0
487	0.333333333333333	0
488	0.333333333333333	0
489	0.166666666666667	0
490	0	0
491	0	-0.333333333333333
492	0	-0.666666666666667
493	0	-0.666666666666667
494	0	-0.666666666666667
495	0	-1
496	0	-0.666666666666667
497	0	-0.333333333333333
498	0	0
499	0.333333333333333	0
500	0.666666666666667	0
501	1	0
502	0.666666666666667	0
503	0.333333333333333	0
504	0	0
505	0	-0.333333333333333
506	0	-0.666666666666667
507	0	-1
508	0	-1
509	0	-1
510	0	-1
511	0	-0.666666666666667
512	0	-0.5
513	0	-0.333333333333333
514	0	0
515	0.333333333333333	0
516	0.666666666666667	0
517	1	0
518	0.666666666666667	0
519	0.666666666666667	0
520	0.666666666666667	0
521	0.666666666666667	0
522	0.666666666666667	0
523	0.666666666666667	0
524	1	0
525	1	0
526	0.666666666666667	0
527	0.333333333333333	0
528	0	0
529	0	-0.333333333333333
530	0	-0.333333333333333
531	0	-0.333333333333333
532	0	-0.166666666666667
533	0	0
534	0.333333333333333	0
535	0.666666666666667	0
536	1	0
537	1	0
538	1	0
539	1	0
540	1	0
541	1	0
542	0.666666666666667	0
543	0.333333333333333	0
544	0	0
545	0	0
546	0	-0.333333333333333
547	0	-0.666666666666667
548	0	-0.666666666666667
549	0	-1
550	0	-1
551	0	-1
552	0	-1
553	0	-1
554	0	-1
555	0	-1
556	0	-1
557	0	-1
558	0	-1
559	0	-1
560	0	-1
561	0	-1
562	0	-1
563	0	-1
564	0	-1
565	0	-1
566	0	-0.666666666666667
567	0	-0.333333333333333
568	0	0
569	0.333333333333333	0
570	0.666666666666667	0
571	1	0
572	1	0
573	1	0
574	1	0
575	1	0
576	1	0
577	1	0
578	1	0
579	1	0
580	1	0
581	1	0
582	1	0
583	1	0
584	1	0
585	1	0
586	1	0
587	0.833333333333333	0
588	1	0
589	1	0
590	1	0
591	1	0
592	1	0
593	1	0
594	1	0
595	1	0
596	1	0
597	1	0
598	0.833333333333333	0
599	0.666666666666667	0
600	1	0
601	1	0
602	1	0
603	1	0
604	1	0
605	1	0
606	1	0
607	1	0
608	1	0
609	0.833333333333333	0
610	0.5	0
611	0.166666666666667	0
612	0	0
613	0	-0.333333333333333
614	0	-0.666666666666667
615	0	-0.666666666666667
616	0	-0.333333333333333
617	0	-0.166666666666667
618	0	0
619	0.333333333333333	0
620	0.666666666666667	0
621	1	0
622	0.666666666666667	0
623	0.333333333333333	0
624	0	0
625	0	0
626	0	-0.333333333333333
627	0	-0.666666666666667
628	0	-1
629	0	-1
630	0	-1
631	0	-1
632	0	-1
633	0	-1
634	0	-1
635	0	-1
636	0	-1
637	0	-1
638	0	-1
639	0	-1
640	0	-1
641	0	-1
642	0	-1
643	0	-1
644	0	-1
645	0	-1
646	0	-1
647	0	-1
648	0	-1
649	0	-1
650	0	-1
651	0	-1
652	0	-1
653	0	-1
654	0	-0.666666666666667
655	0	-0.333333333333333
656	0	0
657	0.333333333333333	0
658	0.666666666666667	0
659	0.833333333333333	0
660	1	0
661	1	0
662	1	0
663	1	0
664	1	0
665	1	0
666	1	0
667	1	0
668	0.666666666666667	0
669	0.666666666666667	0
670	0.666666666666667	0
671	0.666666666666667	0
672	0.666666666666667	0
673	0.666666666666667	0
674	1	0
675	1	0
676	0.833333333333333	0
677	0.833333333333333	0
678	0.5	0
679	0.333333333333333	0
680	0	0
681	0	-0.333333333333333
682	0	-0.5
683	0	-0.666666666666667
684	0	-1
685	0	-1
686	0	-1
687	0	-1
688	0	-1
689	0	-1
690	0	-1
691	0	-1
692	0	-1
693	0	-1
694	0	-1
695	0	-1
696	0	-1
697	0	-1
698	0	-1
699	0	-1
700	0	-1
701	0	-1
702	0	-1
703	0	-1
704	0	-1
705	0	-1
706	0	-1
707	0	-1
708	0	-1
709	0	-1
710	0	-1
711	0	-1
712	0	-1
713	0	-1
714	0	-1
715	0	-1
716	0	-1
717	0	-1
718	0	-1
719	0	-1
720	0	-1
721	0	-1
722	0	-1
723	0	-1
724	0	-1
725	0	-1
726	0	-1
727	0	-1
728	0	-1
729	0	-1
730	0	-1
731	0	-1
732	0	-1
733	0	-1
734	0	-1
735	0	-1
736	0	-1
737	0	-1
738	0	-1
739	0	-1
740	0	-1
741	0	-1
742	0	-1
743	0	-1
744	0	-1
745	0	-1
746	0	-1
747	0	-1
748	0	-1
749	0	-1
750	0	-1
751	0	-1
752	0	-1
753	0	-1
754	0	-1
755	0	-1
756	0	-1
757	0	-1
758	0	-1
759	0	-1
760	0	-1
761	0	-1
762	0	-1
763	0	-1
764	0	-1
765	0	-1
766	0	-1
767	0	-1
768	0	-1
769	0	-1
770	0	-1
771	0	-1
772	0	-1
773	0	-1
774	0	-1
775	0	-1
776	0	-1
777	0	-1
778	0	-1
779	0	-1
780	0	-1
781	0	-1
782	0	-1
783	0	-1
784	0	-1
785	0	-1
786	0	-1
787	0	-1
788	0	-1
789	0	-1
790	0	-1
791	0	-1
792	0	-1
793	0	-1
794	0	-1
795	0	-1
796	0	-1
797	0	-1
798	0	-1
799	0	-1
800	0	-1
801	0	-1
802	0	-1
803	0	-1
804	0	-1
805	0	-1
806	0	-1
807	0	-1
808	0	-1
809	0	-1
810	0	-1
811	0	-1
812	0	-1
813	0	-1
814	0	-1
815	0	-1
816	0	-1
817	0	-1
818	0	-1
819	0	-1
820	0	-1
821	0	-1
822	0	-1
823	0	-1
824	0	-1
825	0	-1
826	0	-1
827	0	-1
828	0	-1
829	0	-1
830	0	-1
831	0	-1
832	0	-1
833	0	-1
834	0	-1
835	0	-1
836	0	-1
837	0	-1
838	0	-1
839	0	-1
840	0	-1
841	0	-1
842	0	-1
843	0	-1
844	0	-1
845	0	-1
846	0	-1
847	0	-1
848	0	-1
849	0	-1
850	0	-1
851	0	-1
852	0	-1
853	0	-1
854	0	-1
855	0	-1
856	0	-1
857	0	-1
858	0	-1
859	0	-1
860	0	-1
861	0	-1
862	0	-1
863	0	-1
864	0	-1
865	0	-1
866	0	-1
867	0	-1
868	0	-1
869	0	-1
870	0	-1
871	0	-1
872	0	-1
873	0	-1
874	0	-1
875	0	-1
876	0	-1
877	0	-1
878	0	-1
879	0	-1
880	0	-1
881	0	-1
882	0	-1
883	0	-1
884	0	-1
885	0	-1
886	0	-1
887	0	-1
888	0	-0.833333333333333
889	0	-0.666666666666667
890	0	-0.5
891	0	-0.333333333333333
892	0	-0.166666666666667
893	0	0
